Radius,Qext,Qsca,Qabs,Gsca
0.040000,0.056563,0.001232,0.055331,0.014088
0.041000,0.058178,0.001360,0.056818,0.014799
0.042000,0.059810,0.001498,0.058312,0.015527
0.043000,0.061459,0.001646,0.059814,0.016272
0.044000,0.063128,0.001804,0.061323,0.017034
0.045000,0.064815,0.001974,0.062841,0.017814
0.046000,0.066522,0.002156,0.064366,0.018611
0.047000,0.068249,0.002349,0.065900,0.019425
0.048000,0.069997,0.002556,0.067441,0.020257
0.049000,0.071768,0.002776,0.068991,0.021106
0.050000,0.073560,0.003010,0.070550,0.021972
0.051000,0.075375,0.003258,0.072117,0.022855
0.052000,0.077215,0.003521,0.073693,0.023756
0.053000,0.079079,0.003800,0.075278,0.024674
0.054000,0.080968,0.004096,0.076872,0.025609
0.055000,0.082883,0.004408,0.078475,0.026562
0.056000,0.084825,0.004737,0.080088,0.027532
0.057000,0.086794,0.005085,0.081709,0.028519
0.058000,0.088791,0.005451,0.083340,0.029524
0.059000,0.090817,0.005836,0.084981,0.030546
0.060000,0.092873,0.006242,0.086631,0.031585
0.061000,0.094960,0.006668,0.088291,0.032642
0.062000,0.097077,0.007116,0.089961,0.033716
0.063000,0.099227,0.007586,0.091641,0.034808
0.064000,0.101410,0.008078,0.093331,0.035917
0.065000,0.103626,0.008594,0.095031,0.037043
0.066000,0.105876,0.009135,0.096741,0.038187
0.067000,0.108161,0.009700,0.098462,0.039348
0.068000,0.110483,0.010290,0.100193,0.040527
0.069000,0.112841,0.010907,0.101934,0.041723
0.070000,0.115237,0.011551,0.103686,0.042937
0.071000,0.117671,0.012223,0.105448,0.044169
0.072000,0.120144,0.012924,0.107221,0.045418
0.073000,0.122657,0.013653,0.109004,0.046685
0.074000,0.125211,0.014413,0.110798,0.047970
0.075000,0.127807,0.015204,0.112603,0.049273
0.076000,0.130445,0.016026,0.114419,0.050593
0.077000,0.133126,0.016881,0.116245,0.051931
0.078000,0.135851,0.017769,0.118082,0.053288
0.079000,0.138621,0.018691,0.119930,0.054662
0.080000,0.141436,0.019647,0.121789,0.056055
0.081000,0.144298,0.020639,0.123658,0.057465
0.082000,0.147207,0.021668,0.125539,0.058894
0.083000,0.150163,0.022733,0.127430,0.060341
0.084000,0.153169,0.023837,0.129332,0.061807
0.085000,0.156224,0.024979,0.131245,0.063291
0.086000,0.159330,0.026160,0.133169,0.064793
0.087000,0.162486,0.027382,0.135104,0.066315
0.088000,0.165694,0.028645,0.137049,0.067855
0.089000,0.168955,0.029949,0.139006,0.069413
0.090000,0.172269,0.031296,0.140972,0.070991
0.091000,0.175637,0.032687,0.142950,0.072587
0.092000,0.179060,0.034121,0.144938,0.074203
0.093000,0.182538,0.035601,0.146937,0.075838
0.094000,0.186072,0.037126,0.148946,0.077493
0.095000,0.189663,0.038697,0.150966,0.079167
0.096000,0.193312,0.040315,0.152996,0.080860
0.097000,0.197018,0.041981,0.155037,0.082573
0.098000,0.200783,0.043696,0.157087,0.084306
0.099000,0.204608,0.045460,0.159148,0.086059
0.100000,0.208493,0.047274,0.161219,0.087833
0.101000,0.212438,0.049138,0.163300,0.089626
0.102000,0.216445,0.051054,0.165391,0.091440
0.103000,0.220513,0.053022,0.167491,0.093275
0.104000,0.224643,0.055042,0.169601,0.095130
0.105000,0.228836,0.057115,0.171721,0.097007
0.106000,0.233092,0.059242,0.173850,0.098904
0.107000,0.237411,0.061423,0.175988,0.100823
0.108000,0.241795,0.063659,0.178136,0.102763
0.109000,0.246243,0.065951,0.180292,0.104725
0.110000,0.250756,0.068299,0.182457,0.106709
0.111000,0.255334,0.070703,0.184631,0.108715
0.112000,0.259978,0.073164,0.186814,0.110743
0.113000,0.264688,0.075682,0.189005,0.112793
0.114000,0.269463,0.078259,0.191205,0.114867
0.115000,0.274306,0.080893,0.193412,0.116963
0.116000,0.279214,0.083586,0.195628,0.119082
0.117000,0.284190,0.086338,0.197851,0.121225
0.118000,0.289232,0.089149,0.200083,0.123391
0.119000,0.294341,0.092020,0.202321,0.125581
0.120000,0.299518,0.094951,0.204567,0.127795
0.121000,0.304762,0.097942,0.206820,0.130034
0.122000,0.310073,0.100992,0.209080,0.132297
0.123000,0.315451,0.104104,0.211347,0.134585
0.124000,0.320896,0.107276,0.213621,0.136898
0.125000,0.326409,0.110508,0.215901,0.139236
0.126000,0.331989,0.113801,0.218188,0.141600
0.127000,0.337635,0.117155,0.220480,0.143990
0.128000,0.343348,0.120570,0.222779,0.146407
0.129000,0.349128,0.124045,0.225083,0.148849
0.130000,0.354974,0.127581,0.227393,0.151319
0.131000,0.360886,0.131177,0.229709,0.153815
0.132000,0.366864,0.134834,0.232030,0.156339
0.133000,0.372907,0.138551,0.234356,0.158891
0.134000,0.379015,0.142328,0.236687,0.161471
0.135000,0.385188,0.146164,0.239023,0.164079
0.136000,0.391424,0.150060,0.241364,0.166715
0.137000,0.397725,0.154015,0.243710,0.169381
0.138000,0.404089,0.158029,0.246060,0.172076
0.139000,0.410515,0.162101,0.248414,0.174800
0.140000,0.417004,0.166231,0.250773,0.177554
0.141000,0.423554,0.170418,0.253136,0.180339
0.142000,0.430165,0.174662,0.255503,0.183154
0.143000,0.436836,0.178962,0.257874,0.186000
0.144000,0.443567,0.183319,0.260248,0.188877
0.145000,0.450357,0.187730,0.262627,0.191785
0.146000,0.457206,0.192196,0.265010,0.194726
0.147000,0.464111,0.196716,0.267396,0.197698
0.148000,0.471074,0.201288,0.269786,0.200703
0.149000,0.478093,0.205914,0.272179,0.203741
0.150000,0.485167,0.210590,0.274576,0.206812
0.151000,0.492295,0.215318,0.276977,0.209915
0.152000,0.499477,0.220096,0.279381,0.213054
0.153000,0.506713,0.224923,0.281789,0.216225
0.154000,0.514000,0.229799,0.284201,0.219431
0.155000,0.521339,0.234722,0.286617,0.222672
0.156000,0.528728,0.239692,0.289036,0.225947
0.157000,0.536167,0.244708,0.291459,0.229257
0.158000,0.543655,0.249769,0.293886,0.232603
0.159000,0.551191,0.254873,0.296318,0.235984
0.160000,0.558774,0.260021,0.298753,0.239401
0.161000,0.566404,0.265211,0.301193,0.242853
0.162000,0.574080,0.270442,0.303638,0.246342
0.163000,0.581800,0.275713,0.306087,0.249868
0.164000,0.589565,0.281024,0.308541,0.253429
0.165000,0.597373,0.286373,0.311000,0.257028
0.166000,0.605223,0.291759,0.313464,0.260662
0.167000,0.613117,0.297183,0.315934,0.264334
0.168000,0.621051,0.302641,0.318410,0.268043
0.169000,0.629026,0.308135,0.320891,0.271788
0.170000,0.637042,0.313663,0.323379,0.275571
0.171000,0.645097,0.319224,0.325874,0.279390
0.172000,0.653192,0.324817,0.328375,0.283247
0.173000,0.661325,0.330441,0.330883,0.287139
0.174000,0.669496,0.336097,0.333400,0.291069
0.175000,0.677705,0.341782,0.335923,0.295035
0.176000,0.685952,0.347497,0.338456,0.299038
0.177000,0.694236,0.353240,0.340996,0.303076
0.178000,0.702557,0.359011,0.343546,0.307150
0.179000,0.710915,0.364810,0.346105,0.311260
0.180000,0.719309,0.370635,0.348674,0.315405
0.181000,0.727740,0.376487,0.351253,0.319585
0.182000,0.736207,0.382365,0.353842,0.323799
0.183000,0.744711,0.388269,0.356442,0.328046
0.184000,0.753251,0.394197,0.359054,0.332327
0.185000,0.761828,0.400151,0.361677,0.336641
0.186000,0.770442,0.406129,0.364312,0.340986
0.187000,0.779092,0.412132,0.366960,0.345362
0.188000,0.787781,0.418159,0.369621,0.349768
0.189000,0.796507,0.424211,0.372296,0.354204
0.190000,0.805271,0.430287,0.374984,0.358669
0.191000,0.814073,0.436387,0.377686,0.363161
0.192000,0.822916,0.442512,0.380403,0.367679
0.193000,0.831797,0.448662,0.383135,0.372223
0.194000,0.840719,0.454837,0.385882,0.376790
0.195000,0.849682,0.461037,0.388645,0.381380
0.196000,0.858687,0.467263,0.391423,0.385992
0.197000,0.867735,0.473516,0.394219,0.390623
0.198000,0.876825,0.479795,0.397030,0.395273
0.199000,0.885960,0.486102,0.399859,0.399940
0.200000,0.895140,0.492436,0.402704,0.404622
0.201000,0.904367,0.498800,0.405567,0.409317
0.202000,0.913640,0.505193,0.408448,0.414024
0.203000,0.922961,0.511616,0.411346,0.418740
0.204000,0.932332,0.518071,0.414262,0.423464
0.205000,0.941753,0.524557,0.417196,0.428194
0.206000,0.951225,0.531077,0.420147,0.432928
0.207000,0.960749,0.537632,0.423117,0.437662
0.208000,0.970326,0.544221,0.426105,0.442396
0.209000,0.979958,0.550847,0.429110,0.447127
0.210000,0.989644,0.557510,0.432134,0.451852
0.211000,0.999387,0.564212,0.435174,0.456568
0.212000,1.009188,0.570955,0.438233,0.461275
0.213000,1.019047,0.577738,0.441308,0.465968
0.214000,1.028965,0.584564,0.444401,0.470646
0.215000,1.038943,0.591434,0.447509,0.475305
0.216000,1.048982,0.598348,0.450634,0.479944
0.217000,1.059083,0.605309,0.453774,0.484558
0.218000,1.069246,0.612317,0.456929,0.489146
0.219000,1.079472,0.619374,0.460099,0.493705
0.220000,1.089762,0.626481,0.463282,0.498233
0.221000,1.100117,0.633639,0.466478,0.502725
0.222000,1.110535,0.640849,0.469686,0.507180
0.223000,1.121019,0.648113,0.472905,0.511594
0.224000,1.131567,0.655431,0.476135,0.515966
0.225000,1.142179,0.662804,0.479374,0.520292
0.226000,1.152857,0.670235,0.482622,0.524569
0.227000,1.163598,0.677721,0.485877,0.528796
0.228000,1.174404,0.685266,0.489138,0.532968
0.229000,1.185274,0.692871,0.492403,0.537085
0.230000,1.196207,0.700534,0.495672,0.541143
0.231000,1.207201,0.708258,0.498943,0.545139
0.232000,1.218257,0.716042,0.502215,0.549072
0.233000,1.229372,0.723886,0.505487,0.552939
0.234000,1.240546,0.731790,0.508756,0.556739
0.235000,1.251778,0.739757,0.512021,0.560468
0.236000,1.263065,0.747784,0.515281,0.564126
0.237000,1.274404,0.755870,0.518534,0.567709
0.238000,1.285795,0.764017,0.521778,0.571217
0.239000,1.297236,0.772224,0.525011,0.574649
0.240000,1.308723,0.780490,0.528233,0.578001
0.241000,1.320254,0.788814,0.531440,0.581273
0.242000,1.331827,0.797195,0.534632,0.584465
0.243000,1.343438,0.805632,0.537806,0.587574
0.244000,1.355085,0.814124,0.540961,0.590601
0.245000,1.366763,0.822668,0.544094,0.593544
0.246000,1.378470,0.831265,0.547204,0.596402
0.247000,1.390202,0.839912,0.550290,0.599176
0.248000,1.401955,0.848606,0.553349,0.601865
0.249000,1.413725,0.857346,0.556380,0.604468
0.250000,1.425509,0.866129,0.559380,0.606987
0.251000,1.437302,0.874953,0.562349,0.609420
0.252000,1.449101,0.883817,0.565284,0.611769
0.253000,1.460900,0.892716,0.568184,0.614034
0.254000,1.472695,0.901647,0.571048,0.616216
0.255000,1.484481,0.910608,0.573873,0.618315
0.256000,1.496255,0.919597,0.576658,0.620333
0.257000,1.508012,0.928609,0.579403,0.622270
0.258000,1.519746,0.937640,0.582106,0.624127
0.259000,1.531455,0.946690,0.584765,0.625907
0.260000,1.543133,0.955754,0.587379,0.627609
0.261000,1.554775,0.964826,0.589948,0.629237
0.262000,1.566376,0.973905,0.592471,0.630792
0.263000,1.577934,0.982987,0.594946,0.632275
0.264000,1.589442,0.992068,0.597374,0.633688
0.265000,1.600897,1.001145,0.599752,0.635034
0.266000,1.612294,1.010213,0.602082,0.636313
0.267000,1.623630,1.019268,0.604362,0.637530
0.268000,1.634900,1.028308,0.606593,0.638684
0.269000,1.646100,1.037327,0.608773,0.639780
0.270000,1.657229,1.046324,0.610905,0.640819
0.271000,1.668280,1.055294,0.612986,0.641804
0.272000,1.679252,1.064234,0.615018,0.642736
0.273000,1.690141,1.073139,0.617001,0.643619
0.274000,1.700944,1.082008,0.618935,0.644454
0.275000,1.711658,1.090836,0.620822,0.645245
0.276000,1.722282,1.099621,0.622661,0.645993
0.277000,1.732814,1.108359,0.624454,0.646702
0.278000,1.743250,1.117048,0.626202,0.647373
0.279000,1.753589,1.125684,0.627905,0.648010
0.280000,1.763829,1.134265,0.629565,0.648614
0.281000,1.773972,1.142789,0.631183,0.649188
0.282000,1.784015,1.151254,0.632761,0.649735
0.283000,1.793955,1.159656,0.634299,0.650256
0.284000,1.803795,1.167995,0.635800,0.650755
0.285000,1.813533,1.176268,0.637265,0.651233
0.286000,1.823170,1.184475,0.638695,0.651694
0.287000,1.832705,1.192611,0.640094,0.652138
0.288000,1.842140,1.200679,0.641461,0.652569
0.289000,1.851476,1.208676,0.642800,0.652989
0.290000,1.860713,1.216600,0.644113,0.653399
0.291000,1.869853,1.224453,0.645401,0.653802
0.292000,1.878897,1.232232,0.646665,0.654200
0.293000,1.887848,1.239938,0.647910,0.654594
0.294000,1.896706,1.247570,0.649136,0.654988
0.295000,1.905476,1.255131,0.650346,0.655381
0.296000,1.914158,1.262617,0.651541,0.655777
0.297000,1.922755,1.270030,0.652725,0.656177
0.298000,1.931270,1.277372,0.653899,0.656582
0.299000,1.939706,1.284641,0.655065,0.656995
0.300000,1.948065,1.291840,0.656225,0.657416
0.301000,1.956353,1.298970,0.657383,0.657848
0.302000,1.964570,1.306031,0.658539,0.658291
0.303000,1.972722,1.313025,0.659697,0.658747
0.304000,1.980811,1.319954,0.660857,0.659218
0.305000,1.988842,1.326820,0.662023,0.659704
0.306000,1.996818,1.333623,0.663195,0.660206
0.307000,2.004742,1.340365,0.664377,0.660726
0.308000,2.012619,1.347049,0.665570,0.661265
0.309000,2.020453,1.353677,0.666776,0.661823
0.310000,2.028248,1.360250,0.667997,0.662402
0.311000,2.036006,1.366771,0.669235,0.663002
0.312000,2.043734,1.373242,0.670491,0.663624
0.313000,2.051434,1.379666,0.671767,0.664269
0.314000,2.059112,1.386046,0.673066,0.664937
0.315000,2.066769,1.392382,0.674387,0.665629
0.316000,2.074413,1.398679,0.675733,0.666346
0.317000,2.082045,1.404939,0.677106,0.667088
0.318000,2.089669,1.411163,0.678506,0.667855
0.319000,2.097292,1.417356,0.679936,0.668648
0.320000,2.104915,1.423520,0.681395,0.669466
0.321000,2.112541,1.429657,0.682885,0.670311
0.322000,2.120178,1.435770,0.684407,0.671182
0.323000,2.127826,1.441863,0.685963,0.672079
0.324000,2.135489,1.447937,0.687553,0.673003
0.325000,2.143171,1.453995,0.689176,0.673954
0.326000,2.150877,1.460040,0.690837,0.674931
0.327000,2.158607,1.466075,0.692532,0.675934
0.328000,2.166368,1.472103,0.694264,0.676963
0.329000,2.174159,1.478125,0.696034,0.678018
0.330000,2.181985,1.484145,0.697840,0.679099
0.331000,2.189850,1.490165,0.699684,0.680205
0.332000,2.197753,1.496188,0.701566,0.681335
0.333000,2.205700,1.502215,0.703485,0.682491
0.334000,2.213693,1.508251,0.705442,0.683670
0.335000,2.221733,1.514297,0.707436,0.684872
0.336000,2.229822,1.520355,0.709468,0.686098
0.337000,2.237962,1.526426,0.711536,0.687346
0.338000,2.246155,1.532515,0.713640,0.688615
0.339000,2.254403,1.538622,0.715781,0.689905
0.340000,2.262705,1.544748,0.717956,0.691215
0.341000,2.271064,1.550898,0.720166,0.692544
0.342000,2.279479,1.557070,0.722409,0.693891
0.343000,2.287953,1.563267,0.724686,0.695256
0.344000,2.296486,1.569493,0.726993,0.696637
0.345000,2.305078,1.575747,0.729331,0.698034
0.346000,2.313727,1.582029,0.731698,0.699446
0.347000,2.322436,1.588342,0.734094,0.700870
0.348000,2.331203,1.594687,0.736515,0.702307
0.349000,2.340026,1.601065,0.738962,0.703756
0.350000,2.348907,1.607475,0.741432,0.705214
0.351000,2.357843,1.613919,0.743924,0.706682
0.352000,2.366832,1.620397,0.746436,0.708157
0.353000,2.375874,1.626909,0.748965,0.709638
0.354000,2.384966,1.633454,0.751512,0.711125
0.355000,2.394108,1.640035,0.754073,0.712616
0.356000,2.403295,1.646649,0.756646,0.714110
0.357000,2.412527,1.653297,0.759230,0.715605
0.358000,2.421799,1.659977,0.761822,0.717100
0.359000,2.431109,1.666689,0.764420,0.718595
0.360000,2.440454,1.673433,0.767022,0.720087
0.361000,2.449831,1.680207,0.769624,0.721575
0.362000,2.459235,1.687008,0.772227,0.723058
0.363000,2.468663,1.693837,0.774826,0.724536
0.364000,2.478112,1.700692,0.777420,0.726005
0.365000,2.487578,1.707571,0.780007,0.727467
0.366000,2.497056,1.714472,0.782584,0.728918
0.367000,2.506540,1.721393,0.785147,0.730358
0.368000,2.516028,1.728330,0.787697,0.731786
0.369000,2.525513,1.735284,0.790229,0.733201
0.370000,2.534992,1.742250,0.792742,0.734601
0.371000,2.544459,1.749225,0.795234,0.735986
0.372000,2.553909,1.756207,0.797702,0.737354
0.373000,2.563337,1.763193,0.800144,0.738704
0.374000,2.572738,1.770180,0.802558,0.740036
0.375000,2.582106,1.777164,0.804942,0.741349
0.376000,2.591437,1.784143,0.807294,0.742641
0.377000,2.600726,1.791114,0.809612,0.743912
0.378000,2.609966,1.798072,0.811894,0.745162
0.379000,2.619153,1.805014,0.814139,0.746389
0.380000,2.628283,1.811937,0.816346,0.747592
0.381000,2.637347,1.818836,0.818512,0.748772
0.382000,2.646345,1.825709,0.820635,0.749928
0.383000,2.655268,1.832552,0.822716,0.751059
0.384000,2.664113,1.839360,0.824752,0.752164
0.385000,2.672876,1.846132,0.826744,0.753244
0.386000,2.681551,1.852862,0.828689,0.754298
0.387000,2.690135,1.859547,0.830588,0.755326
0.388000,2.698623,1.866184,0.832439,0.756327
0.389000,2.707010,1.872768,0.834241,0.757302
0.390000,2.715294,1.879298,0.835996,0.758250
0.391000,2.723471,1.885770,0.837701,0.759172
0.392000,2.731538,1.892180,0.839358,0.760067
0.393000,2.739491,1.898525,0.840966,0.760936
0.394000,2.747328,1.904802,0.842526,0.761778
0.395000,2.755046,1.911008,0.844038,0.762594
0.396000,2.762644,1.917141,0.845502,0.763383
0.397000,2.770118,1.923199,0.846920,0.764147
0.398000,2.777468,1.929177,0.848291,0.764885
0.399000,2.784691,1.935075,0.849616,0.765599
0.400000,2.791786,1.940890,0.850896,0.766287
0.401000,2.798753,1.946620,0.852134,0.766951
0.402000,2.805593,1.952264,0.853328,0.767591
0.403000,2.812302,1.957820,0.854482,0.768207
0.404000,2.818883,1.963286,0.855597,0.768801
0.405000,2.825335,1.968661,0.856674,0.769372
0.406000,2.831659,1.973945,0.857713,0.769921
0.407000,2.837856,1.979137,0.858719,0.770449
0.408000,2.843926,1.984235,0.859691,0.770956
0.409000,2.849872,1.989240,0.860632,0.771443
0.410000,2.855695,1.994151,0.861544,0.771910
0.411000,2.861396,1.998968,0.862428,0.772359
0.412000,2.866979,2.003692,0.863287,0.772789
0.413000,2.872444,2.008322,0.864122,0.773202
0.414000,2.877796,2.012860,0.864936,0.773599
0.415000,2.883036,2.017306,0.865731,0.773979
0.416000,2.888167,2.021659,0.866508,0.774343
0.417000,2.893194,2.025923,0.867271,0.774693
0.418000,2.898118,2.030098,0.868020,0.775029
0.419000,2.902944,2.034185,0.868759,0.775352
0.420000,2.907675,2.038185,0.869490,0.775662
0.421000,2.912315,2.042101,0.870213,0.775960
0.422000,2.916868,2.045935,0.870933,0.776247
0.423000,2.921337,2.049687,0.871650,0.776523
0.424000,2.925730,2.053362,0.872368,0.776790
0.425000,2.930045,2.056958,0.873087,0.777047
0.426000,2.934291,2.060481,0.873810,0.777296
0.427000,2.938472,2.063932,0.874540,0.777538
0.428000,2.942590,2.067312,0.875277,0.777772
0.429000,2.946651,2.070627,0.876024,0.778000
0.430000,2.950660,2.073876,0.876784,0.778223
0.431000,2.954621,2.077064,0.877557,0.778440
0.432000,2.958538,2.080193,0.878346,0.778653
0.433000,2.962416,2.083265,0.879151,0.778862
0.434000,2.966260,2.086285,0.879975,0.779068
0.435000,2.970074,2.089255,0.880819,0.779272
0.436000,2.973861,2.092176,0.881685,0.779474
0.437000,2.977629,2.095054,0.882575,0.779674
0.438000,2.981379,2.097890,0.883489,0.779873
0.439000,2.985118,2.100688,0.884429,0.780073
0.440000,2.988847,2.103451,0.885396,0.780273
0.441000,2.992573,2.106182,0.886391,0.780473
0.442000,2.996300,2.108883,0.887417,0.780675
0.443000,3.000029,2.111557,0.888472,0.780879
0.444000,3.003768,2.114209,0.889559,0.781086
0.445000,3.007517,2.116840,0.890677,0.781295
0.446000,3.011282,2.119455,0.891827,0.781507
0.447000,3.015065,2.122054,0.893012,0.781724
0.448000,3.018871,2.124642,0.894229,0.781944
0.449000,3.022702,2.127220,0.895481,0.782170
0.450000,3.026561,2.129793,0.896768,0.782400
0.451000,3.030451,2.132362,0.898089,0.782635
0.452000,3.034376,2.134931,0.899446,0.782877
0.453000,3.038337,2.137501,0.900836,0.783124
0.454000,3.042336,2.140074,0.902262,0.783377
0.455000,3.046377,2.142655,0.903722,0.783637
0.456000,3.050461,2.145244,0.905217,0.783904
0.457000,3.054591,2.147845,0.906745,0.784178
0.458000,3.058764,2.150456,0.908308,0.784460
0.459000,3.062988,2.153085,0.909903,0.784748
0.460000,3.067259,2.155729,0.911530,0.785044
0.461000,3.071581,2.158392,0.913189,0.785348
0.462000,3.075953,2.161074,0.914879,0.785660
0.463000,3.080376,2.163778,0.916598,0.785980
0.464000,3.084850,2.166504,0.918346,0.786307
0.465000,3.089374,2.169254,0.920120,0.786643
0.466000,3.093950,2.172029,0.921921,0.786987
0.467000,3.098576,2.174829,0.923747,0.787338
0.468000,3.103253,2.177656,0.925596,0.787698
0.469000,3.107976,2.180510,0.927467,0.788065
0.470000,3.112749,2.183392,0.929357,0.788440
0.471000,3.117567,2.186300,0.931267,0.788822
0.472000,3.122430,2.189238,0.933192,0.789212
0.473000,3.127334,2.192201,0.935133,0.789609
0.474000,3.132278,2.195192,0.937086,0.790013
0.475000,3.137261,2.198211,0.939050,0.790423
0.476000,3.142278,2.201256,0.941022,0.790840
0.477000,3.147328,2.204326,0.943002,0.791264
0.478000,3.152406,2.207420,0.944985,0.791693
0.479000,3.157511,2.210539,0.946972,0.792127
0.480000,3.162636,2.213679,0.948957,0.792567
0.481000,3.167782,2.216841,0.950941,0.793012
0.482000,3.172941,2.220020,0.952921,0.793461
